Tiempo (s) Serie Nº 1	Posición (m) Serie Nº 1
0.780	0.218
0.800	0.219
0.820	0.220
0.840	0.223
0.860	0.225
0.880	0.229
0.900	0.233
0.920	0.238
0.940	0.244
0.960	0.250
0.980	0.257
1.000	0.265
1.020	0.274
1.040	0.283
1.060	0.293
1.080	0.303
1.100	0.315
1.120	0.327
1.140	0.339
1.160	0.352
1.180	0.367
1.200	0.379
1.220	0.395
1.240	0.411
1.260	0.428
1.280	0.445
1.300	0.464
1.320	0.483
1.340	0.503
1.360	0.522
1.380	0.543
1.400	0.565
1.420	0.587
1.440	0.610
1.460	0.634
1.480	0.658
1.500	0.683
1.520	0.711
1.540	0.735
1.560	0.762
1.580	0.792
1.600	0.820
1.620	0.849
1.640	0.877
1.660	0.907
1.680	0.939